# input flux integral: 50.6638 (width integral: 25.3319)
0.25 0.0248743
0.75 0.03344
1.25 0.0350806
1.75 0.0371198
2.25 0.0375394
2.75 0.0386591
3.25 0.0375041
3.75 0.0358567
4.25 0.0340537
4.75 0.0325818
5.25 0.0324217
5.75 0.0335821
6.25 0.0345021
6.75 0.0355725
7.25 0.0346545
7.75 0.0341115
8.25 0.0326424
8.75 0.0309929
9.25 0.0290246
9.75 0.0269713
10.25 0.0252054
10.75 0.0231289
11.25 0.0213738
11.75 0.0196964
12.25 0.018133
12.75 0.0164257
13.25 0.0150048
13.75 0.0133564
14.25 0.0126829
14.75 0.0113271
15.25 0.010566
15.75 0.0094555
16.25 0.00877652
16.75 0.00784171
17.25 0.00722032
17.75 0.00651178
18.25 0.00614797
18.75 0.00561554
19.25 0.00520582
19.75 0.0047259
20.25 0.00436813
20.75 0.00392836
21.25 0.00364408
21.75 0.00327569
22.25 0.00306351
22.75 0.00274257
23.25 0.00255048
23.75 0.00223722
24.25 0.00213375
24.75 0.00189853
25.25 0.00174273
25.75 0.00151906
26.25 0.00144476
26.75 0.00129909
27.25 0.0013095
27.75 0.00125928
28.25 0.00126277
28.75 0.00114002
29.25 0.00116962
29.75 0.0010866
30.25 0.00102828
30.75 0.00104528
31.25 0.00100237
31.75 0.00092639
32.25 0.000902178
32.75 0.00089914
33.25 0.000861796
33.75 0.000818404
34.25 0.000810998
34.75 0.000806441
35.25 0.000776199
35.75 0.000814453
36.25 0.000816229
36.75 0.00083815
37.25 0.000813103
37.75 0.000847642
38.25 0.000848718
38.75 0.000830784
39.25 0.000885124
39.75 0.000889255
40.25 0.000853784
40.75 0.000845974
41.25 0.000857444
41.75 0.000818067
42.25 0.000802947
42.75 0.000756005
43.25 0.000793394
43.75 0.000705213
44.25 0.000754972
44.75 0.000724702
45.25 0.00065634
45.75 0.000658981
46.25 0.000637717
46.75 0.000596113
47.25 0.000587944
47.75 0.000574672
48.25 0.000534393
48.75 0.000515111
49.25 0.000489414
49.75 0.000488088
50.25 0.000444873
50.75 0.000416366
51.25 0.000393042
51.75 0.000377419
52.25 0.000319672
52.75 0.000324454
53.25 0.000288782
53.75 0.000297182
54.25 0.000240722
54.75 0.000239017
55.25 0.000204268
55.75 0.000192855
56.25 0.000174025
56.75 0.000149237
57.25 0.000119059
57.75 0.000120963
58.25 0.000102019
58.75 9.76779e-05
59.25 8.89506e-05
59.75 0.00010123
60.25 9.41758e-05
60.75 8.02282e-05
61.25 7.60357e-05
61.75 7.44345e-05
62.25 7.43901e-05
62.75 6.82842e-05
63.25 6.28e-05
63.75 6.11345e-05
64.25 5.61748e-05
64.75 5.62423e-05
65.25 5.01685e-05
65.75 4.49455e-05
66.25 4.52936e-05
66.75 4.23738e-05
67.25 4.32052e-05
67.75 3.56923e-05
68.25 3.522e-05
68.75 3.55832e-05
69.25 2.97678e-05
69.75 3.26659e-05
70.25 2.60612e-05
70.75 2.67645e-05
71.25 2.50634e-05
71.75 2.7054e-05
72.25 2.37106e-05
72.75 2.30146e-05
73.25 1.50237e-05
73.75 1.82669e-05
74.25 1.45576e-05
74.75 1.70655e-05
75.25 1.95512e-05
75.75 1.46527e-05
76.25 1.1583e-05
76.75 1.03542e-05
77.25 1.22809e-05
77.75 1.11963e-05
78.25 1.09371e-05
78.75 9.4753e-06
79.25 7.21392e-06
79.75 8.34193e-06
80.25 6.95867e-06
80.75 8.65542e-06
81.25 5.79814e-06
81.75 5.6592e-06
82.25 7.4623e-06
82.75 6.89804e-06
83.25 6.0075e-06
83.75 5.81377e-06
84.25 3.74802e-06
84.75 3.97589e-06
85.25 3.84341e-06
85.75 2.87706e-06
86.25 2.56056e-06
86.75 2.5852e-06
87.25 2.57375e-06
87.75 2.70807e-06
88.25 3.20357e-06
88.75 2.1346e-06
89.25 2.7731e-06
89.75 1.44923e-06
90.25 1.04574e-06
90.75 1.68624e-06
91.25 1.4134e-06
91.75 1.5408e-06
92.25 1.40464e-06
92.75 1.16604e-06
93.25 1.01052e-06
93.75 1.0135e-06
94.25 1.0002e-06
94.75 7.31052e-07
95.25 8.59812e-07
95.75 3.73243e-07
96.25 4.96101e-07
96.75 2.46493e-07
97.25 1.22981e-07
97.75 0
98.25 1.23602e-07
98.75 0
99.25 0
99.75 0
