# input flux integral: 4.23486 (width integral: 2.11743)
0.25 0.0183099
0.75 0.0478632
1.25 0.0761797
1.75 0.0908971
2.25 0.0981958
2.75 0.0901247
3.25 0.0844272
3.75 0.0727262
4.25 0.0605496
4.75 0.0500765
5.25 0.0402646
5.75 0.033638
6.25 0.0263031
6.75 0.0206884
7.25 0.0162796
7.75 0.0131877
8.25 0.0109922
8.75 0.00921226
9.25 0.00868721
9.75 0.00835691
10.25 0.00709235
10.75 0.00645642
11.25 0.00609475
11.75 0.00547237
12.25 0.00502645
12.75 0.00484874
13.25 0.00440249
13.75 0.00427039
14.25 0.00395407
14.75 0.00355946
15.25 0.00318223
15.75 0.00322828
16.25 0.00323265
16.75 0.003374
17.25 0.00312266
17.75 0.00292978
18.25 0.00270451
18.75 0.00231774
19.25 0.00243007
19.75 0.00239812
20.25 0.00210444
20.75 0.00216778
21.25 0.00201421
21.75 0.00185943
22.25 0.0017638
22.75 0.00179198
23.25 0.00167748
23.75 0.00177961
24.25 0.00160441
24.75 0.00147025
25.25 0.00141412
25.75 0.00138283
26.25 0.00122764
26.75 0.00110688
27.25 0.0012119
27.75 0.00105453
28.25 0.00102085
28.75 0.000982118
29.25 0.000907481
29.75 0.000840477
30.25 0.000891841
30.75 0.000863982
31.25 0.000887801
31.75 0.000717096
32.25 0.000673881
32.75 0.000689138
33.25 0.000624309
33.75 0.000556933
34.25 0.000472913
34.75 0.000665477
35.25 0.000501443
35.75 0.00048545
36.25 0.000476715
36.75 0.000501339
37.25 0.000412937
37.75 0.000362137
38.25 0.000298159
38.75 0.000285124
39.25 0.000262564
39.75 0.000273121
40.25 0.00018757
40.75 0.000152768
41.25 0.000166714
41.75 0.000175264
42.25 0.000145514
42.75 0.000138234
43.25 0.000113649
43.75 9.21597e-05
44.25 0.000102877
44.75 0.000116786
45.25 0.000103609
45.75 0.000101282
46.25 9.41248e-05
46.75 4.52294e-05
47.25 5.40018e-05
47.75 7.58354e-05
48.25 6.82876e-05
48.75 4.4388e-05
49.25 4.89169e-05
49.75 3.22068e-05
50.25 2.60117e-05
50.75 5.86497e-05
51.25 4.43037e-05
51.75 3.86903e-05
52.25 4.62826e-05
52.75 2.82168e-05
53.25 2.55619e-05
53.75 2.77615e-05
54.25 2.15304e-05
54.75 2.45194e-05
55.25 1.91578e-05
55.75 1.39792e-05
56.25 2.10071e-05
56.75 1.21006e-05
57.25 1.25768e-05
57.75 4.1464e-06
58.25 8.7129e-06
58.75 1.04916e-05
59.25 1.15132e-05
59.75 1.01848e-05
60.25 7.96889e-06
60.75 1.14217e-05
61.25 9.15951e-06
61.75 1.96999e-06
62.25 9.40473e-06
62.75 3.96216e-06
63.25 6.50985e-06
63.75 1.80425e-06
64.25 1.03402e-06
64.75 5.99432e-06
65.25 2.8932e-06
65.75 3.77899e-06
66.25 9.4296e-07
66.75 2.91335e-06
67.25 3.83522e-06
67.75 2.85681e-06
68.25 4.66174e-06
68.75 3.6921e-06
69.25 2.71398e-06
69.75 1.81511e-06
70.25 1.81091e-06
70.75 1.77355e-06
71.25 8.82901e-07
71.75 1.76958e-06
72.25 1.7053e-06
72.75 0
73.25 0
73.75 8.58341e-07
74.25 2.52818e-06
74.75 2.51765e-06
75.25 3.3463e-06
75.75 8.34907e-07
76.25 2.48514e-06
76.75 0
77.25 8.18318e-07
77.75 1.63049e-06
78.25 0
78.75 0
79.25 7.99999e-07
79.75 0
80.25 7.89937e-07
80.75 7.84938e-07
81.25 0
81.75 7.77002e-07
82.25 1.54026e-06
82.75 0
83.25 0
83.75 0
84.25 2.25471e-06
84.75 7.44422e-07
85.25 0
85.75 1.47331e-06
86.25 7.31725e-07
86.75 1.4555e-06
87.25 3.61911e-06
87.75 7.21229e-07
88.25 1.43309e-06
88.75 7.10281e-07
89.25 0
89.75 1.40513e-06
90.25 0
90.75 2.08221e-06
91.25 0
91.75 0
92.25 0
92.75 0
93.25 0
93.75 0
94.25 0
94.75 0
95.25 0
95.75 0
96.25 0
96.75 0
97.25 0
97.75 0
98.25 0
98.75 0
99.25 0
99.75 0
