# input flux integral: 2.9282e-10 (width integral: 1.4641e-11)
0.025 0.00736629
0.075 0.0267741
0.125 0.033232
0.175 0.0389659
0.225 0.0450447
0.275 0.0491086
0.325 0.0504405
0.375 0.0505088
0.425 0.051226
0.475 0.0507137
0.525 0.049416
0.575 0.0480158
0.625 0.0459326
0.675 0.0439519
0.725 0.0416979
0.775 0.0393415
0.825 0.0367119
0.875 0.0340823
0.925 0.0313401
0.975 0.0287241
1.025 0.0261526
1.075 0.0235879
1.125 0.0211051
1.175 0.0187999
1.225 0.0166553
1.275 0.0145789
1.325 0.0125879
1.375 0.0107609
1.425 0.00914554
1.475 0.00772488
1.525 0.00648179
1.575 0.0053958
1.625 0.00447715
1.675 0.00369852
1.725 0.00304521
1.775 0.00248787
1.825 0.00202889
1.875 0.00165084
1.925 0.00134451
1.975 0.00108599
2.025 0.000880062
2.075 0.000705552
2.125 0.000568608
2.175 0.000459668
2.225 0.000369168
2.275 0.000301789
2.325 0.000243699
2.375 0.000194898
2.425 0.000157776
2.475 0.000129021
2.525 0.000103408
2.575 8.23714e-05
2.625 6.75158e-05
2.675 5.59388e-05
2.725 4.51813e-05
2.775 3.54484e-05
2.825 2.9735e-05
2.875 2.38406e-05
2.925 2.07568e-05
2.975 1.74544e-05
3.025 1.33836e-05
3.075 1.13653e-05
3.125 9.7705e-06
3.175 8.13468e-06
3.225 7.83757e-06
3.275 7.74878e-06
3.325 6.24274e-06
3.375 5.5085e-06
3.425 5.24895e-06
3.475 4.69571e-06
3.525 4.25859e-06
3.575 3.56533e-06
3.625 3.25524e-06
3.675 2.78259e-06
3.725 2.55618e-06
3.775 2.67639e-06
3.825 2.11802e-06
3.875 2.25872e-06
3.925 1.87658e-06
3.975 1.75261e-06
4.025 1.67338e-06
4.075 1.70207e-06
4.125 1.52961e-06
4.175 8.21665e-07
4.225 7.49948e-07
4.275 6.73792e-07
4.325 6.01734e-07
4.375 4.57277e-07
4.425 4.28932e-07
4.475 3.30203e-07
4.525 2.57701e-07
4.575 2.04221e-07
4.625 2.14842e-07
4.675 1.61874e-07
4.725 1.22293e-07
4.775 1.12321e-07
4.825 9.5895e-08
4.875 9.24117e-08
4.925 8.32934e-08
4.975 5.04405e-08
5.025 4.23468e-08
5.075 3.53459e-08
5.125 3.0739e-08
5.175 2.34615e-08
5.225 2.92842e-08
5.275 1.4999e-08
5.325 1.61737e-08
5.375 1.0375e-08
5.425 8.24055e-09
5.475 7.07601e-09
5.525 7.03845e-09
5.575 3.80097e-09
5.625 3.16098e-09
5.675 2.23106e-09
5.725 2.75903e-09
5.775 2.27512e-09
5.825 1.18674e-09
5.875 1.30046e-09
5.925 1.19357e-09
5.975 8.60938e-10
6.025 6.71743e-10
6.075 4.31664e-10
6.125 2.35366e-10
6.175 2.52271e-10
6.225 1.184e-10
6.275 3.50386e-10
6.325 5.47435e-11
6.375 5.5324e-11
6.425 3.85902e-11
6.475 4.76402e-11
6.525 7.21945e-12
6.575 1.34656e-11
6.625 6.44764e-12
6.675 2.29219e-11
6.725 2.02991e-11
6.775 0
6.825 4.90403e-12
6.875 0
6.925 0
6.975 0
7.025 0
7.075 0
7.125 0
7.175 4.90403e-12
7.225 0
7.275 0
7.325 0
7.375 0
7.425 0
7.475 0
7.525 0
7.575 0
7.625 0
7.675 0
7.725 0
7.775 0
7.825 0
7.875 0
7.925 0
7.975 0
8.025 0
8.075 0
8.125 0
8.175 0
8.225 0
8.275 0
8.325 0
8.375 0
8.425 0
8.475 0
8.525 0
8.575 0
8.625 0
8.675 0
8.725 0
8.775 0
8.825 0
8.875 0
8.925 0
8.975 0
9.025 0
9.075 0
9.125 0
9.175 0
9.225 0
9.275 0
9.325 0
9.375 0
9.425 0
9.475 0
9.525 0
9.575 0
9.625 0
9.675 0
9.725 0
9.775 0
9.825 0
9.875 0
9.925 0
9.975 0
